"Time (s)","X (rad/s)","Y (rad/s)","Z (rad/s)"
4.971199995E-2,-1.109813929E0,-1.714838147E-1,-1.078944057E-1
5.965499999E-2,-1.110050321E0,-1.777598634E-3,-1.291730702E-1
6.959700002E-2,-1.066858292E0,1.622151136E-1,-1.295372844E-1
7.953999995E-2,-9.608693123E-1,2.602902949E-1,-1.185458899E-1
8.948199998E-2,-7.871120572E-1,3.052048087E-1,-1.007611752E-1
9.942400001E-2,-5.654858947E-1,3.059406579E-1,-7.810433209E-2
1.093669999E-1,-3.309134245E-1,2.485080063E-1,-3.776979819E-2
1.193090000E-1,-1.280351579E-1,1.531798989E-1,1.134848036E-2
1.292520000E-1,3.566736728E-2,7.123972476E-2,8.331708610E-2
1.391940000E-1,1.578558683E-1,1.467072032E-2,1.623658389E-1
1.491370000E-1,2.442743778E-1,-1.675404795E-2,2.315030992E-1
1.590790000E-1,2.940448523E-1,-3.549018502E-2,2.696323693E-1
1.690220000E-1,3.098799288E-1,-5.399647355E-2,2.550925016E-1
1.789640000E-1,2.885389626E-1,-1.008760929E-1,2.089092731E-1
1.889070000E-1,2.215178013E-1,-1.426783949E-1,1.519181281E-1
1.988490000E-1,1.148139909E-1,-1.737218052E-1,1.143606454E-1
2.087910000E-1,-4.115607962E-2,-1.395397186E-1,1.052833423E-1
2.187340000E-1,-2.353724241E-1,-5.087296665E-2,1.143543348E-1
2.286760000E-1,-4.229033291E-1,3.278567269E-2,1.331837922E-1
2.386190000E-1,-5.887396932E-1,6.943503767E-2,1.400675327E-1
2.485610000E-1,-7.199995518E-1,6.982256472E-2,1.122139543E-1
2.585040000E-1,-8.139223456E-1,9.600330144E-2,5.136818066E-2
2.684450001E-1,-8.686247468E-1,1.296949685E-1,-2.565845102E-2
2.783880000E-1,-9.099386334E-1,1.536269337E-1,-1.150346696E-1
2.883300000E-1,-9.576580524E-1,1.610461622E-1,-1.966883540E-1
2.982720000E-1,-9.905195832E-1,1.702681631E-1,-2.363998145E-1
3.082150000E-1,-1.001520872E0,1.560177803E-1,-2.213194668E-1
3.181570000E-1,-9.871140122E-1,1.003199071E-1,-1.501936316E-1
3.281000000E-1,-9.404239655E-1,-1.296095643E-2,-4.378776625E-2
3.380420000E-1,-8.625949621E-1,-1.545564383E-1,8.948080987E-2
3.479850000E-1,-7.604952455E-1,-2.728079855E-1,2.494544685E-1
3.579270000E-1,-6.506704688E-1,-3.909849524E-1,4.097562432E-1
3.678700000E-1,-5.584514737E-1,-5.178265572E-1,5.495933890E-1
3.778120000E-1,-4.712332189E-1,-5.842921138E-1,6.573813558E-1
3.877540000E-1,-3.949376345E-1,-5.575544238E-1,7.309540510E-1
3.976969999E-1,-3.400882483E-1,-4.950553775E-1,7.612469792E-1
4.076390000E-1,-3.220148385E-1,-4.523814321E-1,7.565730214E-1
4.175820000E-1,-3.220124543E-1,-4.738899171E-1,7.366824150E-1
4.275239999E-1,-3.315858543E-1,-5.033775568E-1,6.968445778E-1
4.374670000E-1,-3.388504386E-1,-4.586138427E-1,6.592396498E-1
4.474090000E-1,-3.605473638E-1,-3.574568927E-1,6.133388877E-1
4.573519999E-1,-3.892879188E-1,-1.957822293E-1,5.498120785E-1
4.672940000E-1,-4.401529729E-1,-5.461489037E-2,4.785240591E-1
4.772360000E-1,-5.152996778E-1,1.861857623E-2,4.073747694E-1
4.871790000E-1,-6.274102330E-1,5.186824501E-2,3.477489650E-1
4.971210000E-1,-7.693644762E-1,2.908809856E-2,3.360233307E-1
5.070640000E-1,-9.154330492E-1,-4.695365205E-2,3.591621220E-1
5.170060000E-1,-1.028656483E0,-1.423701942E-1,4.195985794E-1
5.269490000E-1,-1.104708314E0,-2.139644623E-1,4.894804358E-1
5.368910000E-1,-1.113007784E0,-2.142390311E-1,5.321562290E-1
5.468340000E-1,-1.061281919E0,-2.067565918E-1,5.263398290E-1
5.567760000E-1,-9.763889313E-1,-2.432304472E-1,4.739410877E-1
5.667180000E-1,-8.825427890E-1,-2.389173359E-1,3.947885931E-1
5.766610000E-1,-7.804954648E-1,-1.310385317E-1,2.984341085E-1
5.866029999E-1,-6.884880662E-1,5.433443189E-2,1.986063123E-1
5.965460000E-1,-6.177917719E-1,2.513702810E-1,1.135766432E-1
6.064880000E-1,-5.921944380E-1,4.148414433E-1,4.497233406E-2
6.164309999E-1,-6.285783052E-1,4.707521200E-1,1.577396691E-2
6.263730000E-1,-7.205270529E-1,3.902072906E-1,4.072759300E-2
6.363150000E-1,-8.545298576E-1,2.079024613E-1,1.115447804E-1
6.462580001E-1,-9.825183153E-1,-1.422660053E-2,2.204484791E-1
6.562000000E-1,-1.075797439E0,-1.828081608E-1,3.441363275E-1
6.661430000E-1,-1.117208719E0,-2.112834901E-1,4.544136226E-1
6.760850000E-1,-1.110090971E0,-1.252660602E-1,5.329263210E-1
6.860280000E-1,-1.050651789E0,2.818990871E-2,5.875852704E-1
6.959700000E-1,-9.690251350E-1,1.695262492E-1,6.186773777E-1
7.059130000E-1,-8.782366514E-1,2.468867600E-1,6.225730777E-1
7.158550000E-1,-8.094320297E-1,2.429721653E-1,6.101433039E-1
7.257970000E-1,-7.521062493E-1,1.588456929E-1,5.766632557E-1
7.357400000E-1,-7.149663568E-1,2.645622566E-2,5.055251718E-1
7.456819999E-1,-7.196217775E-1,-3.697494790E-2,4.109861255E-1
7.556250000E-1,-7.602270246E-1,2.515737433E-3,3.417953551E-1
7.655670000E-1,-8.393483162E-1,7.311296463E-2,3.262152374E-1
7.755099999E-1,-9.495019913E-1,8.469904959E-2,3.853286207E-1
7.854520000E-1,-1.076331735E0,1.869568974E-2,4.968341589E-1
7.953950000E-1,-1.193794489E0,-9.083586186E-2,6.227353811E-1
8.053369999E-1,-1.262249947E0,-1.921033859E-1,7.310664654E-1
8.152800000E-1,-1.259516239E0,-2.464355975E-1,8.146370053E-1
8.252220000E-1,-1.239999533E0,-1.287380457E-1,8.590778708E-1
8.351640000E-1,-1.206655860E0,-6.762543321E-2,8.247424960E-1
8.451070000E-1,-1.176302075E0,-1.315388083E-1,7.160519958E-1
8.550490000E-1,-1.147488832E0,-2.977139354E-1,5.239238143E-1
8.649920000E-1,-1.111160636E0,-4.289279282E-1,2.915975153E-1
8.749340000E-1,-1.014702320E0,-4.752948880E-1,9.085588902E-2
8.848770000E-1,-8.017449975E-1,-4.541338980E-1,2.430729941E-2
8.948190000E-1,-5.870726109E-1,-3.715247512E-1,8.900852501E-2
9.047620000E-1,-3.459674418E-1,-2.386782616E-1,2.716901302E-1
9.147040000E-1,-1.303424537E-1,-4.930833355E-2,5.004279613E-1
9.246460000E-1,4.608453065E-2,2.226661891E-1,7.129958868E-1
9.345890000E-1,1.600600928E-1,4.800828099E-1,8.776003122E-1
9.445310000E-1,1.961327940E-1,6.563008428E-1,1.000018239E0
9.544740000E-1,1.615572423E-1,6.789686084E-1,1.088190794E0
9.644159999E-1,7.551524043E-2,5.359806418E-1,1.122686863E0
9.743590000E-1,-4.450944066E-2,2.519121766E-1,1.098122120E0
9.843010000E-1,-1.785711050E-1,-1.150248125E-1,9.934942722E-1
9.942439999E-1,-3.059847057E-1,-4.778296351E-1,7.771835327E-1
1.004186000E0,-4.096675515E-1,-7.334623337E-1,4.739630818E-1
1.014129000E0,-4.909158051E-1,-8.488179445E-1,1.399664730E-1
1.024071000E0,-5.452044010E-1,-8.044790030E-1,-1.553988904E-1
1.034014000E0,-5.665397644E-1,-6.653866172E-1,-3.582430780E-1
1.043956000E0,-5.471652150E-1,-5.493476391E-1,-4.328048527E-1
1.053898000E0,-5.307129622E-1,-4.552925229E-1,-4.218097329E-1
1.063841000E0,-5.268493295E-1,-4.040316045E-1,-3.853330612E-1
1.073783000E0,-5.033821464E-1,-4.163207710E-1,-3.625886142E-1
1.083726000E0,-4.292496443E-1,-4.785493910E-1,-3.746301830E-1
1.093668000E0,-2.952308655E-1,-5.834193230E-1,-4.019004107E-1
1.103611000E0,-1.344714761E-1,-7.006448507E-1,-4.492409527E-1
1.113553000E0,4.184150696E-2,-7.677327991E-1,-5.231780410E-1
1.123496000E0,2.189442664E-1,-8.096326590E-1,-5.747175217E-1
1.133438000E0,3.660117388E-1,-8.475901484E-1,-5.926555395E-1
1.143381000E0,4.513535798E-1,-8.880042434E-1,-5.872827768E-1
1.153323000E0,4.796989262E-1,-9.026814103E-1,-5.816707015E-1
1.163265000E0,5.011727810E-1,-8.591066599E-1,-5.792046189E-1
1.173208000E0,5.225571394E-1,-7.723901272E-1,-5.841022134E-1
1.183150000E0,5.513130426E-1,-6.645145416E-1,-5.974199772E-1
1.193093000E0,5.865104795E-1,-5.456845760E-1,-6.234681010E-1
1.203035000E0,6.000393033E-1,-4.232552648E-1,-6.647891998E-1
1.212978000E0,5.587797165E-1,-2.781324387E-1,-7.115660310E-1
1.222920000E0,4.628117085E-1,-1.312491894E-1,-7.442645431E-1
1.232863000E0,3.239379823E-1,-4.623597488E-3,-7.460496426E-1
1.242805000E0,1.692696661E-1,6.418810040E-2,-7.076925635E-1
1.252748000E0,3.267534077E-2,1.365118325E-1,-6.189703941E-1
1.262690000E0,-6.040740013E-2,1.380603462E-1,-5.023087263E-1
1.272633583E0,-4.867830873E-2,-1.040777192E-1,-3.575049341E-1
1.282575583E0,-1.139122471E-1,-1.815030724E-1,-2.176158279E-1
1.292517583E0,-1.559899300E-1,-3.529339433E-1,-9.724654257E-2
1.302460583E0,-1.605266035E-1,-4.464927614E-1,-5.755228922E-3
1.312402583E0,-1.841475219E-1,-4.408942461E-1,1.990566030E-2
1.322345583E0,-1.819256246E-1,-3.843016326E-1,-2.932951972E-2
1.332287583E0,-1.047110036E-1,-2.869303524E-1,-1.162524372E-1
1.342230583E0,3.881950676E-2,-1.521443874E-1,-2.239565551E-1
1.352172583E0,1.813912988E-1,4.004263878E-2,-3.358468711E-1
1.362115583E0,3.216135204E-1,2.546811104E-1,-4.268186986E-1
1.372057583E0,4.692077637E-1,4.362090826E-1,-4.810310900E-1
1.382000583E0,5.956346393E-1,5.116021037E-1,-5.070611238E-1
1.391942583E0,6.881022453E-1,4.101903141E-1,-5.092893839E-1
1.401884583E0,7.484467030E-1,2.674603462E-1,-5.026289225E-1
1.411827583E0,7.753470540E-1,1.384927779E-1,-4.766926765E-1
1.421769583E0,7.607294917E-1,-2.163671888E-4,-4.267088771E-1
1.431712583E0,7.165228724E-1,-1.527678370E-1,-3.720938265E-1
1.441654583E0,6.582004428E-1,-2.923309505E-1,-3.284182549E-1
1.451597583E0,5.842943192E-1,-3.820499182E-1,-2.970041335E-1
1.461539583E0,4.798773527E-1,-4.489790797E-1,-2.788887620E-1
1.471482583E0,3.467142284E-1,-4.578671157E-1,-2.635753155E-1
1.481424583E0,1.999466270E-1,-3.788713515E-1,-2.602186501E-1
1.491367583E0,6.583462656E-2,-2.345187068E-1,-2.681367695E-1
1.501309583E0,-6.658768654E-2,-4.097921029E-2,-2.741708159E-1
1.511252583E0,-1.810764521E-1,1.771672368E-1,-2.474800497E-1
1.521194583E0,-2.659057379E-1,4.237248600E-1,-2.077591568E-1
1.531136583E0,-2.947616279E-1,6.656562686E-1,-1.555377543E-1
1.541079583E0,-2.898318172E-1,8.262968063E-1,-9.928272665E-2
1.551021583E0,-2.338332683E-1,8.871108890E-1,-2.383057959E-2
1.560964583E0,-1.228523105E-1,8.819178343E-1,6.892661750E-2
1.570906583E0,2.952444181E-2,8.091238141E-1,1.541720182E-1
1.580849583E0,1.923434734E-1,7.322393656E-1,2.350157499E-1
1.590791583E0,3.490449190E-1,7.493485808E-1,3.247208595E-1
1.600734583E0,4.669606984E-1,7.891188860E-1,4.026266634E-1
1.610676583E0,5.371446013E-1,7.609394789E-1,4.526213706E-1
1.620619583E0,5.488818288E-1,6.391567588E-1,4.744746387E-1
1.630561583E0,5.059615374E-1,4.539379179E-1,4.691427052E-1
1.640503583E0,3.991394341E-1,2.601272166E-1,4.359410107E-1
1.650446583E0,2.690725029E-1,1.157756224E-1,3.952809572E-1
1.660388583E0,1.165898964E-1,4.585312679E-2,3.545682728E-1
1.670331583E0,-2.459891513E-2,1.918503083E-2,3.401392698E-1
1.680273583E0,-1.445318311E-1,4.803022370E-2,3.400720358E-1
1.690216583E0,-2.207011580E-1,1.243992895E-1,3.465850651E-1
1.700158583E0,-2.381108999E-1,2.385886610E-1,3.620124161E-1
1.710101583E0,-2.186650187E-1,3.569344878E-1,3.813778460E-1
1.720043583E0,-2.053413093E-1,4.434388578E-1,3.999245167E-1
1.729985583E0,-2.099099755E-1,5.007391572E-1,4.071225226E-1
1.739928583E0,-2.254811674E-1,5.277609229E-1,4.012782276E-1
1.749870583E0,-2.253203094E-1,5.118948817E-1,3.839059174E-1
1.759813583E0,-1.881424338E-1,4.557441175E-1,3.834791780E-1
1.769755583E0,-1.208083928E-1,3.568764031E-1,3.929001093E-1
1.779698583E0,-4.248850048E-2,2.344625741E-1,4.066221118E-1
1.789640583E0,3.702975810E-2,1.112072095E-1,4.103944600E-1
1.799583583E0,1.155554056E-1,4.131442681E-2,4.363208115E-1
1.809525583E0,1.583654433E-1,-4.808602482E-2,4.820401073E-1
1.819468583E0,1.875127703E-1,-1.054819673E-1,5.311723351E-1
1.829410583E0,2.032030523E-1,-9.264153242E-2,5.757473111E-1
1.839352583E0,2.172077298E-1,-5.333937705E-2,6.089338660E-1
1.849295583E0,2.393276691E-1,9.729873389E-3,6.344456673E-1
1.859237583E0,2.638436854E-1,8.644940704E-2,6.479135156E-1
1.869180583E0,2.878116071E-1,1.744250655E-1,6.489822865E-1
1.879122583E0,3.006409407E-1,2.399624288E-1,6.265372038E-1
1.889065583E0,2.960025072E-1,2.817972004E-1,5.886076093E-1
1.899007583E0,2.724130154E-1,3.085041046E-1,5.219026804E-1
1.908950583E0,2.328650802E-1,3.502297103E-1,4.405407012E-1
1.918892583E0,1.976841837E-1,3.872883320E-1,3.625319004E-1
1.928834583E0,1.872549653E-1,4.047535956E-1,3.130690157E-1
1.938777583E0,2.017782331E-1,4.013051689E-1,2.978911102E-1
1.948719583E0,2.343116850E-1,3.692122102E-1,3.127731383E-1
1.958662583E0,2.798440754E-1,3.106938303E-1,3.476003706E-1
1.968604583E0,3.503326178E-1,2.251006365E-1,3.871667087E-1
1.978547583E0,4.549550414E-1,1.016850919E-1,4.310307205E-1
1.988489583E0,6.006137729E-1,-1.809031516E-2,4.552415311E-1
1.998431583E0,7.389311790E-1,-9.570354223E-2,4.584269822E-1
2.008374583E0,8.250995874E-1,-1.134268790E-1,4.408970177E-1
2.018316583E0,8.304637671E-1,-6.457873434E-2,4.068396688E-1
2.028259583E0,7.773134708E-1,2.227600664E-2,3.808043599E-1
2.038201583E0,6.813163757E-1,7.747061551E-2,3.808619678E-1
2.048144583E0,5.649477243E-1,8.269147575E-2,4.155482948E-1
2.058086583E0,4.518573284E-1,5.614794418E-2,4.588312507E-1
2.068029583E0,3.838628232E-1,-1.066277735E-2,4.745681584E-1
2.077971583E0,3.810551465E-1,-6.369326264E-2,4.671207070E-1
2.087913583E0,3.994317353E-1,-1.128171310E-1,4.726422429E-1
2.097856583E0,3.867870271E-1,-1.878122687E-1,5.100429058E-1
2.107798583E0,3.008729219E-1,-3.224859238E-1,5.769792795E-1
2.117741583E0,1.582609266E-1,-5.176090002E-1,6.409630775E-1
2.127683583E0,-1.131213084E-2,-8.049406409E-1,6.950534582E-1
2.137626583E0,-1.561303884E-1,-1.118434787E0,7.099843621E-1
2.147568583E0,-2.167287469E-1,-1.391323328E0,6.693852544E-1
2.157511583E0,-2.137433439E-1,-1.530805588E0,5.674288273E-1
2.167453583E0,-1.588750482E-1,-1.463069677E0,4.375169277E-1
2.177395583E0,-9.361432493E-2,-1.205877542E0,3.072217405E-1
2.187338583E0,-4.470723122E-2,-8.220792413E-1,2.383896708E-1
2.197280583E0,-2.225056477E-2,-3.774369657E-1,2.747525275E-1
2.207223583E0,-5.276959017E-2,-2.368741855E-2,3.917143047E-1
2.217165583E0,-1.518956423E-1,1.746079028E-1,5.331952572E-1
2.227108583E0,-3.100011349E-1,1.860637665E-1,6.355615854E-1
2.237050583E0,-4.967756271E-1,-5.274197087E-3,6.666155457E-1
2.246992583E0,-6.909403205E-1,-3.365192115E-1,6.189982295E-1
2.256935583E0,-8.435374498E-1,-6.647297144E-1,5.112015605E-1
2.266877583E0,-9.007616043E-1,-8.992668986E-1,3.727371693E-1
2.276820958E0,-8.647441864E-1,-1.042601824E0,2.215535343E-1
2.286762958E0,-7.797856331E-1,-1.062413573E0,6.326908618E-2
2.296705958E0,-6.651056409E-1,-9.449314475E-1,-8.563537896E-2
2.306647958E0,-5.667439103E-1,-7.224124074E-1,-2.003803402E-1
2.316590958E0,-5.021971464E-1,-4.416167140E-1,-2.611832619E-1
2.326532958E0,-5.041492581E-1,-1.741207987E-1,-2.591216862E-1
2.336474958E0,-5.632464290E-1,3.100956790E-2,-2.114074528E-1
2.346417958E0,-6.255905032E-1,2.314995229E-1,-1.589706242E-1
2.356359958E0,-6.514038444E-1,3.944545686E-1,-1.335298568E-1
2.366302958E0,-5.981467366E-1,4.760772586E-1,-1.342023015E-1
2.376244958E0,-4.667950273E-1,4.748342633E-1,-1.535040289E-1
2.386187958E0,-2.831580937E-1,4.036439657E-1,-1.721858382E-1
2.396129958E0,-7.204753160E-2,2.529540062E-1,-1.760738492E-1
2.406071958E0,1.205165982E-1,3.086259589E-2,-1.712750942E-1
2.416014958E0,2.731023133E-1,-2.262583077E-1,-1.763964593E-1
2.425956958E0,3.726283610E-1,-4.555396736E-1,-1.951563060E-1
2.435899958E0,4.153096080E-1,-6.316975355E-1,-2.417910993E-1
2.445841958E0,3.883954287E-1,-7.248964310E-1,-3.049074709E-1
2.455783958E0,3.096180558E-1,-7.042438984E-1,-3.783451915E-1
2.465726958E0,1.830169857E-1,-5.871428251E-1,-4.529813528E-1
2.475668958E0,3.882484883E-2,-3.893987834E-1,-5.055527687E-1
2.485611958E0,-1.064788178E-1,-1.621546894E-1,-5.341913700E-1
2.495553958E0,-2.285122126E-1,5.127473921E-2,-5.467744470E-1
2.505496958E0,-3.096462190E-1,2.317880541E-1,-5.506751537E-1
2.515438958E0,-3.542209566E-1,3.567301035E-1,-5.542115569E-1
2.525380958E0,-3.632309437E-1,4.301558435E-1,-5.486271977E-1
2.535323958E0,-3.570034802E-1,4.642544687E-1,-5.372201800E-1
2.545265958E0,-3.270437121E-1,4.482336938E-1,-5.298738480E-1
2.555208958E0,-2.863663137E-1,3.797351420E-1,-5.177180767E-1
2.565150958E0,-2.277096659E-1,2.975566387E-1,-5.025218129E-1
2.575093958E0,-1.712904721E-1,2.127280682E-1,-4.926057160E-1
2.585035958E0,-1.043857262E-1,1.408365667E-1,-4.834114015E-1
2.594977958E0,-2.228076756E-2,7.462365925E-2,-4.739010036E-1
2.604920958E0,7.370595634E-2,3.187025897E-3,-4.582903385E-1
2.614862958E0,1.782293171E-1,-9.722129256E-2,-4.345779419E-1
2.624805958E0,2.688020766E-1,-2.055373788E-1,-4.163571298E-1
2.634747958E0,3.320229650E-1,-2.985809743E-1,-3.948836923E-1
2.644690958E0,3.482650518E-1,-3.516511321E-1,-3.820344806E-1
2.654632958E0,3.464992046E-1,-3.354918063E-1,-3.822557330E-1
2.664574958E0,3.337815404E-1,-2.556366622E-1,-3.876089454E-1
2.674517958E0,3.084943295E-1,-1.676746756E-1,-4.030174315E-1
2.684459958E0,2.546769083E-1,-1.365729421E-1,-4.364688694E-1
2.694402958E0,1.746385545E-1,-2.036901265E-1,-4.671944678E-1
2.704344958E0,7.744889706E-2,-3.359576166E-1,-4.889737964E-1
2.714286958E0,-1.676848531E-2,-4.280153513E-1,-5.113516450E-1
2.724229958E0,-8.308492601E-2,-4.103572667E-1,-5.435828567E-1
2.734171958E0,-1.201207489E-1,-2.824954391E-1,-5.849566460E-1
2.744114958E0,-1.362629682E-1,-1.104192585E-1,-6.027066112E-1
2.754056958E0,-1.675772816E-1,-5.702048540E-3,-5.938929319E-1
2.763999958E0,-2.457077801E-1,1.569565199E-2,-5.719231963E-1
2.773941958E0,-3.649224937E-1,-1.027819701E-2,-5.600643158E-1
2.783883958E0,-5.091462135E-1,-4.907672852E-2,-5.690551400E-1
2.793826958E0,-6.350855827E-1,-6.339021027E-2,-5.848882198E-1
2.803768958E0,-7.033616304E-1,1.673099212E-2,-5.873290300E-1
2.813711958E0,-6.767073870E-1,2.289459705E-1,-5.243860483E-1
2.823653958E0,-5.341722965E-1,5.348763466E-1,-4.038202167E-1
2.833596958E0,-3.107199371E-1,8.065893650E-1,-2.472224534E-1
2.843538958E0,-8.486522734E-2,9.530251026E-1,-7.604033500E-2
2.853480958E0,8.203858882E-2,9.288300872E-1,7.036004961E-2
2.863423958E0,1.892326772E-1,7.978446484E-1,1.637906730E-1
2.873365958E0,2.526663840E-1,5.598811507E-1,2.082021832E-1
2.883308958E0,2.818511724E-1,2.679632902E-1,2.007155120E-1
2.893250958E0,2.550128698E-1,-3.220766783E-2,1.577339917E-1
2.903192958E0,1.512723565E-1,-2.657234967E-1,9.589086473E-2
2.913135958E0,-1.642728597E-2,-3.777509332E-1,3.456238657E-2
2.923077958E0,-2.116444409E-1,-3.404248655E-1,-2.964989096E-2
2.933020958E0,-3.741511106E-1,-1.729240865E-1,-9.585265815E-2
2.942962958E0,-4.737951458E-1,6.133980304E-2,-1.368725300E-1
2.952904958E0,-5.147191882E-1,3.327583373E-1,-1.238462478E-1
2.962847958E0,-5.130509734E-1,6.036140919E-1,-5.431643873E-2
2.972789958E0,-4.918599725E-1,8.354854584E-1,4.868285730E-2
2.982732958E0,-4.480341971E-1,9.734749794E-1,1.558921337E-1
2.992674958E0,-3.905682564E-1,1.006822586E0,2.331933081E-1
3.002617958E0,-3.104414642E-1,9.504776001E-1,2.758696377E-1
3.012559958E0,-2.135418653E-1,8.115622401E-1,3.067924082E-1
3.022501958E0,-1.110232025E-1,6.044109464E-1,3.330338597E-1
3.032444958E0,-9.210651740E-3,3.727875054E-1,3.572357893E-1
3.042386958E0,9.051993489E-2,1.639538854E-1,3.854674399E-1
3.052329958E0,1.936631501E-1,1.772767305E-2,4.183476567E-1
3.062271958E0,2.674976885E-1,-6.881786883E-2,4.508731067E-1
3.072213958E0,3.127032518E-1,-9.344439209E-2,4.683857858E-1
3.082156958E0,3.273200095E-1,-8.845975250E-2,4.662922621E-1
3.092098958E0,3.039270043E-1,-6.634978205E-2,4.572055638E-1
3.102041958E0,2.435563654E-1,-2.539728954E-2,4.381045699E-1
3.111983958E0,1.731509715E-1,1.839364320E-2,4.229152799E-1
3.121925958E0,9.505245090E-2,6.201143190E-2,4.159426093E-1
3.131868958E0,3.416778892E-2,8.836978674E-2,3.982067108E-1
3.141810958E0,-9.315507486E-3,1.028994620E-1,3.738284111E-1
3.151753958E0,-4.020645469E-2,9.768310189E-2,3.409970999E-1
3.161695958E0,-4.623079300E-2,9.271497279E-2,3.215243220E-1
3.171638958E0,-3.011531942E-2,8.550902456E-2,3.216392696E-1
3.181580958E0,-1.092190389E-3,7.132689655E-2,3.360275328E-1
3.191522958E0,3.392231092E-2,8.205169439E-2,3.513508737E-1
3.201465958E0,8.281821012E-2,1.295592934E-1,3.611582518E-1
3.211407958E0,1.486117691E-1,1.713111997E-1,3.857936561E-1
3.221350958E0,2.243273109E-1,1.990908980E-1,4.319433272E-1
3.231292958E0,2.859028578E-1,2.038342655E-1,4.896679819E-1
3.241234958E0,3.381759226E-1,1.903962195E-1,5.426803827E-1
3.251177958E0,3.770607710E-1,1.668408811E-1,5.751994252E-1
3.261119958E0,4.051999748E-1,1.418045014E-1,5.797291994E-1
3.271062208E0,4.341792166E-1,1.471449137E-1,5.516131520E-1
3.281004208E0,4.803043604E-1,1.936559528E-1,4.857004285E-1
3.290946208E0,5.215902328E-1,2.435458750E-1,3.838025033E-1
3.300889208E0,5.285741091E-1,2.151784003E-1,2.790206969E-1
