"Time (s)","X (rad/s)","Y (rad/s)","Z (rad/s)"
4.348399997E-2,-1.490281522E-1,2.430657297E-1,-2.167689800E-1
5.342399998E-2,-1.534076482E-1,2.570535839E-1,-2.299860269E-1
6.336299999E-2,-1.576718986E-1,2.597955763E-1,-2.313588858E-1
7.330300001E-2,-1.680158526E-1,2.558774650E-1,-2.235040367E-1
8.324199996E-2,-1.602306366E-1,2.505000234E-1,-2.191052884E-1
9.318199998E-2,-1.095672473E-1,2.439014018E-1,-2.175957859E-1
1.031210000E-1,-2.034523152E-2,2.531657219E-1,-2.222142369E-1
1.130610000E-1,8.784056455E-2,2.815625966E-1,-2.361310720E-1
1.230000000E-1,1.684025079E-1,3.113423288E-1,-2.513204217E-1
1.329400000E-1,2.194780111E-1,3.105821609E-1,-2.296063751E-1
1.428800000E-1,2.422333956E-1,2.646274269E-1,-1.649988890E-1
1.528190000E-1,2.252351046E-1,2.264747024E-1,-9.523810446E-2
1.627590000E-1,1.986860633E-1,1.821410656E-1,-4.632622376E-2
1.726980000E-1,1.794893891E-1,1.269799471E-1,-2.187677659E-2
1.826380000E-1,1.613197029E-1,9.213061631E-2,-1.429528929E-2
1.925770000E-1,1.559395194E-1,9.431321174E-2,-2.239206620E-2
2.025170000E-1,1.511735320E-1,1.017333120E-1,-3.151019663E-2
2.124560000E-1,1.434815526E-1,1.005928665E-1,-3.229837120E-2
2.223960000E-1,1.391075850E-1,9.642395377E-2,-3.565262258E-2
2.323350000E-1,1.322665066E-1,7.857451588E-2,-4.167912528E-2
2.422750000E-1,1.096064821E-1,5.594164133E-2,-5.921124294E-2
2.522150000E-1,8.211842924E-2,4.309955612E-2,-7.894115895E-2
2.621540000E-1,5.261459574E-2,6.015736610E-2,-1.057077944E-1
2.720940000E-1,1.939855330E-2,9.136010706E-2,-1.255897433E-1
2.820330000E-1,-1.490882039E-2,9.458865970E-2,-1.499536633E-1
2.919730000E-1,-4.781184345E-2,7.809209079E-2,-1.702090353E-1
3.019120000E-1,-8.888097852E-2,6.165293604E-2,-1.784238219E-1
3.118520000E-1,-1.310751736E-1,6.156665459E-2,-1.798435003E-1
3.217910000E-1,-1.667940170E-1,7.405980676E-2,-1.843125373E-1
3.317310000E-1,-1.833523512E-1,1.036983728E-1,-1.966570169E-1
3.416700000E-1,-1.696320176E-1,1.326067299E-1,-2.097781450E-1
3.516100000E-1,-1.461345255E-1,1.498527974E-1,-2.115343213E-1
3.615490000E-1,-1.148996353E-1,1.448545754E-1,-1.967284828E-1
3.714890000E-1,-7.444671541E-2,1.222413406E-1,-1.755049825E-1
3.814290000E-1,-3.180658072E-2,8.311337233E-2,-1.464498937E-1
3.913680000E-1,5.042983685E-3,3.749460727E-2,-1.048230454E-1
4.013080000E-1,1.960834302E-2,-1.563847996E-3,-5.847125873E-2
4.112470000E-1,2.979909629E-2,-3.089942783E-2,-1.196415909E-2
4.211870000E-1,5.308683962E-2,-5.607935041E-2,3.623905778E-2
4.311260000E-1,8.322433382E-2,-7.608842105E-2,8.512452245E-2
4.410660000E-1,1.336970925E-1,-7.294216007E-2,1.334307939E-1
4.510050000E-1,2.036916018E-1,-3.626050800E-2,1.904347092E-1
4.609450000E-1,2.908160985E-1,1.598964632E-2,2.465176880E-1
4.708840000E-1,3.916647434E-1,7.807640731E-2,3.024972975E-1
4.808240000E-1,4.790989757E-1,1.266929358E-1,3.487465680E-1
4.907640000E-1,5.282300115E-1,1.587232947E-1,3.844137788E-1
5.007030000E-1,5.388986468E-1,1.448389143E-1,4.022955596E-1
5.106430000E-1,5.264337659E-1,8.545906097E-2,4.238141179E-1
5.205820000E-1,4.992125928E-1,1.941986009E-2,4.448062181E-1
5.305220000E-1,4.718831480E-1,-1.366311219E-2,4.681444764E-1
5.404610000E-1,4.556421340E-1,-1.925335452E-2,5.024270415E-1
5.504010000E-1,4.580640495E-1,-5.217022728E-3,5.356059074E-1
5.603400000E-1,4.841811359E-1,1.096274704E-2,5.612359047E-1
5.702800000E-1,5.410499573E-1,9.242204018E-3,5.804198980E-1
5.802190000E-1,6.063631773E-1,-7.154080085E-3,5.975903273E-1
5.901590000E-1,6.423116326E-1,-2.289608587E-3,6.184608340E-1
6.000980000E-1,6.394186616E-1,3.653741628E-2,6.704436541E-1
6.100380000E-1,6.001394391E-1,7.817133516E-2,7.338874340E-1
6.199772500E-1,5.541461110E-1,1.109947935E-1,7.790788412E-1
6.299162500E-1,5.161094666E-1,1.193971187E-1,7.894598246E-1
6.398562500E-1,4.921652675E-1,1.100558192E-1,7.641616464E-1
6.497952500E-1,4.811736345E-1,9.094864875E-2,7.119770646E-1
6.597352500E-1,4.673643410E-1,7.948160917E-2,6.439024210E-1
6.696742500E-1,4.436837435E-1,8.889816701E-2,5.794784427E-1
6.796142500E-1,4.119524360E-1,1.211216077E-1,5.234926343E-1
6.895532500E-1,3.933118582E-1,1.795695126E-1,4.766201377E-1
6.994932500E-1,3.869721889E-1,2.467440218E-1,4.374588728E-1
7.094322500E-1,3.971015811E-1,3.092454076E-1,3.997074962E-1
7.193722500E-1,4.176566601E-1,3.534512222E-1,3.644706905E-1
7.293112500E-1,4.299794137E-1,3.846772611E-1,3.260660172E-1
7.392512500E-1,4.107732177E-1,4.155680835E-1,2.932124734E-1
7.491912500E-1,3.667973578E-1,4.286375344E-1,2.664676011E-1
7.591302500E-1,3.292899430E-1,4.021055102E-1,2.435625494E-1
7.690702500E-1,3.058267534E-1,3.396228254E-1,2.129351050E-1
7.790092500E-1,2.816300690E-1,2.517720461E-1,1.821486950E-1
7.889492500E-1,2.603167593E-1,1.648236662E-1,1.601769626E-1
7.988882500E-1,2.321178913E-1,9.208954871E-2,1.406226903E-1
8.088282500E-1,2.059150785E-1,3.745898604E-2,1.228218526E-1
8.187672500E-1,1.692665070E-1,7.875245064E-4,9.588238597E-2
8.287072500E-1,1.245438829E-1,-1.988574490E-2,5.737369135E-2
8.386462500E-1,9.222801775E-2,-1.666278578E-2,2.563626692E-2
8.485862500E-1,7.027208805E-2,4.312614910E-3,-2.242621966E-3
8.585252500E-1,6.048177555E-2,4.575912654E-2,-1.408356801E-2
8.684652500E-1,5.845060945E-2,9.579375386E-2,-1.826355606E-2
8.784052500E-1,6.159660220E-2,1.470745206E-1,-1.463100594E-2
8.883442500E-1,5.699958652E-2,1.851489246E-1,-1.391774043E-2
8.982842500E-1,4.825749621E-2,2.242324054E-1,-1.066602208E-2
9.082232500E-1,2.430262603E-2,2.622386515E-1,-1.721593551E-2
9.181632500E-1,-1.963500306E-2,3.153255582E-1,-2.845687233E-2
9.281022500E-1,-7.288833708E-2,3.713818491E-1,-3.312221542E-2
9.380422500E-1,-1.256391704E-1,4.183783829E-1,-3.157225624E-2
9.479812500E-1,-1.634852439E-1,4.458036721E-1,-1.745794527E-2
9.579212500E-1,-1.929030418E-1,4.534424245E-1,9.008814581E-3
9.678602500E-1,-2.168422490E-1,4.439829290E-1,3.364679962E-2
9.778002500E-1,-2.449300736E-1,4.418854415E-1,6.286141276E-2
9.877392500E-1,-2.729906440E-1,4.367359877E-1,8.734913170E-2
9.976792500E-1,-2.925760448E-1,4.308008552E-1,1.099761501E-1
1.007618250E0,-3.092003167E-1,4.133686721E-1,1.264736205E-1
1.017558250E0,-3.224580586E-1,3.905467093E-1,1.447958946E-1
1.027498250E0,-3.316878378E-1,3.715326488E-1,1.595555842E-1
1.037437250E0,-3.389899433E-1,3.612933159E-1,1.667961776E-1
1.047377250E0,-3.606736958E-1,3.630396128E-1,1.604829133E-1
1.057316250E0,-3.895578086E-1,3.792034090E-1,1.508843452E-1
1.067256250E0,-4.198023081E-1,4.084500670E-1,1.361116767E-1
1.077195250E0,-4.454067349E-1,4.372992814E-1,1.254222691E-1
1.087135250E0,-4.731971920E-1,4.632059038E-1,1.135226563E-1
1.097074250E0,-4.969952106E-1,4.887599945E-1,1.099708006E-1
1.107014250E0,-5.261856914E-1,5.253470540E-1,1.109907255E-1
1.116953250E0,-5.636619925E-1,5.674217939E-1,1.148994491E-1
1.126893250E0,-6.061375141E-1,6.152216196E-1,1.226560026E-1
1.136832250E0,-6.492798924E-1,6.705770493E-1,1.369686276E-1
1.146772250E0,-6.967672706E-1,7.200165987E-1,1.499876380E-1
1.156712250E0,-7.416706085E-1,7.727775574E-1,1.635159552E-1
1.166651250E0,-7.875996828E-1,8.245858550E-1,1.751647443E-1
1.176591250E0,-8.279356956E-1,8.726258278E-1,1.911112219E-1
1.186530250E0,-8.660061955E-1,9.143874049E-1,2.107643634E-1
1.196470250E0,-9.016051888E-1,9.540522695E-1,2.271670401E-1
1.206409250E0,-9.351018667E-1,9.837775230E-1,2.457958311E-1
1.216349250E0,-9.599770904E-1,1.004473448E0,2.707065046E-1
1.226288250E0,-9.881512523E-1,1.020218492E0,2.914713323E-1
1.236228250E0,-1.012340188E0,1.036938310E0,3.165034354E-1
1.246167250E0,-1.028164983E0,1.055434346E0,3.363230228E-1
1.256107250E0,-1.038693786E0,1.081195593E0,3.580898345E-1
1.266046250E0,-1.039291978E0,1.113574028E0,3.710496724E-1
1.275986250E0,-1.030738473E0,1.156317234E0,3.866347671E-1
1.285925250E0,-1.016498446E0,1.195747256E0,4.092243910E-1
1.295865250E0,-1.005861521E0,1.238777041E0,4.398986995E-1
1.305805250E0,-1.000056982E0,1.279205918E0,4.746021032E-1
1.315744250E0,-9.952940941E-1,1.316394806E0,5.171130300E-1
1.325684250E0,-9.958204031E-1,1.347227931E0,5.613701940E-1
1.335623250E0,-9.860359430E-1,1.369294643E0,6.104964614E-1
1.345563250E0,-9.660610557E-1,1.375747800E0,6.663451791E-1
1.355502250E0,-9.316335917E-1,1.368443847E0,7.259826660E-1
1.365442250E0,-8.833988905E-1,1.350257516E0,7.906516194E-1
1.375381250E0,-8.262946010E-1,1.328949332E0,8.429941535E-1
1.385321250E0,-7.679239511E-1,1.307214499E0,8.735498786E-1
1.395260250E0,-7.130732536E-1,1.280366659E0,8.767307401E-1
1.405200250E0,-6.630148292E-1,1.243316650E0,8.616240621E-1
1.415139250E0,-6.245132685E-1,1.188900590E0,8.332169056E-1
1.425079250E0,-5.888084769E-1,1.118997455E0,7.869118452E-1
1.435019250E0,-5.497851968E-1,1.042384982E0,7.327666283E-1
1.444958250E0,-4.998507202E-1,9.685414433E-1,6.653338075E-1
1.454898250E0,-4.538906813E-1,9.157876968E-1,6.100258231E-1
1.464837250E0,-4.112083912E-1,8.845507503E-1,5.620600581E-1
1.474777250E0,-3.745715618E-1,8.790233731E-1,5.311815143E-1
1.484716250E0,-3.534564972E-1,8.809857368E-1,5.036286712E-1
1.494656250E0,-3.510572612E-1,8.957620263E-1,4.842853248E-1
1.504595250E0,-3.699501753E-1,9.066320658E-1,4.694409668E-1
1.514535250E0,-4.006026387E-1,9.228472710E-1,4.523668885E-1
1.524474250E0,-4.424945414E-1,9.421767592E-1,4.319307804E-1
1.534414250E0,-4.834518135E-1,9.568231106E-1,4.034224451E-1
1.544353250E0,-5.227012634E-1,9.657253027E-1,3.699437380E-1
1.554293250E0,-5.556938648E-1,9.708511233E-1,3.376550376E-1
1.564232250E0,-5.777506828E-1,9.616528749E-1,3.125118911E-1
1.574172250E0,-6.010072827E-1,9.509762526E-1,3.024219573E-1
1.584111250E0,-6.152742505E-1,9.324113727E-1,3.024903238E-1
1.594051250E0,-6.201360822E-1,9.150281549E-1,3.132992983E-1
1.603991250E0,-6.245100498E-1,8.958466053E-1,3.282867670E-1
1.613930250E0,-6.192619801E-1,8.832620978E-1,3.393546045E-1
1.623870250E0,-6.133513451E-1,8.807458282E-1,3.476471305E-1
1.633809250E0,-5.995550752E-1,8.844444156E-1,3.540078104E-1
1.643749250E0,-5.731420517E-1,8.943994045E-1,3.599691093E-1
1.653688250E0,-5.401755571E-1,9.018322825E-1,3.617718220E-1
1.663628250E0,-4.989252388E-1,8.985552788E-1,3.648250699E-1
1.673567250E0,-4.442984760E-1,8.903277516E-1,3.682813346E-1
1.683507250E0,-3.854841590E-1,8.772886395E-1,3.694964051E-1
1.693446250E0,-3.168840706E-1,8.584318757E-1,3.666151166E-1
1.703386250E0,-2.372061163E-1,8.295338750E-1,3.665426075E-1
1.713325250E0,-1.607454270E-1,7.996667624E-1,3.697786033E-1
1.723265250E0,-8.899646252E-2,7.661347389E-1,3.606978059E-1
1.733204250E0,-3.068469092E-2,7.353467345E-1,3.410138488E-1
1.743144250E0,3.129569069E-2,7.007646561E-1,3.133328855E-1
1.753083250E0,9.614312649E-2,6.719574928E-1,2.753604650E-1
1.763023250E0,1.699941903E-1,6.495445967E-1,2.324875593E-1
1.772963250E0,2.424209863E-1,6.300712824E-1,1.881845593E-1
1.782902250E0,3.075366020E-1,6.219132543E-1,1.421012282E-1
1.792842250E0,3.572823107E-1,6.241404414E-1,1.073538885E-1
1.802781250E0,3.902772963E-1,6.253796220E-1,8.283043653E-2
1.812721250E0,4.139685035E-1,6.272741556E-1,8.320540935E-2
1.822660250E0,4.249791205E-1,6.180000901E-1,1.074272171E-1
1.832600250E0,4.262819588E-1,5.967437625E-1,1.429961324E-1
1.842539250E0,4.120778739E-1,5.699375272E-1,1.956711262E-1
1.852479250E0,3.905789554E-1,5.326061249E-1,2.562447488E-1
1.862418250E0,3.551182151E-1,4.757187963E-1,3.207376897E-1
1.872358250E0,3.059692979E-1,3.978168070E-1,3.876338899E-1
1.882297250E0,2.445137501E-1,2.826588452E-1,4.634941220E-1
1.892237250E0,1.860025078E-1,1.311670691E-1,5.342793465E-1
1.902176250E0,1.429196447E-1,-4.551510513E-2,6.021778584E-1
1.912116250E0,1.206676140E-1,-2.194778472E-1,6.628329754E-1
1.922055250E0,1.273060441E-1,-3.495931625E-1,7.145595551E-1
1.931995250E0,1.497136056E-1,-4.034380317E-1,7.540017366E-1
1.941935250E0,1.667907834E-1,-3.762299716E-1,7.771871686E-1
1.951874250E0,1.801404208E-1,-2.979479432E-1,7.918071151E-1
1.961814250E0,2.073773593E-1,-1.794918776E-1,8.049318790E-1
1.971753250E0,2.457852066E-1,-1.801616326E-2,8.311821222E-1
1.981693250E0,2.922073007E-1,1.840698272E-1,8.649536371E-1
1.991632250E0,3.307725489E-1,4.168127775E-1,8.794156909E-1
2.001572250E0,3.535081148E-1,6.357565522E-1,8.631983995E-1
2.011511250E0,3.408679664E-1,7.883857489E-1,8.081468940E-1
2.021451250E0,2.755877078E-1,8.351948857E-1,7.236366272E-1
2.031390250E0,1.883603930E-1,7.985647321E-1,6.326699853E-1
2.041330250E0,8.288341761E-2,6.955535412E-1,5.596662760E-1
2.051269250E0,-3.055685945E-2,5.677077174E-1,5.219724178E-1
2.061209250E0,-1.260864139E-1,4.593984783E-1,5.074520111E-1
2.071148250E0,-1.887399405E-1,3.843210340E-1,5.045715570E-1
2.081088250E0,-2.201055586E-1,3.577114642E-1,4.782553315E-1
2.091027250E0,-2.204259336E-1,3.522445261E-1,4.285298586E-1
2.100967250E0,-1.890692115E-1,3.577308953E-1,3.550052643E-1
2.110907250E0,-1.343977153E-1,3.615155220E-1,2.786396444E-1
2.120846250E0,-6.812517345E-2,3.630350232E-1,2.085290998E-1
2.130786250E0,2.097588498E-3,3.489269316E-1,1.433919072E-1
2.140725250E0,7.463473082E-2,3.232006133E-1,8.380617201E-2
2.150665250E0,1.371628195E-1,2.790049314E-1,3.935614601E-2
2.160604250E0,1.912383139E-1,2.205256373E-1,1.899641939E-4
2.170544250E0,2.287318856E-1,1.473193318E-1,-3.737898171E-2
2.180483250E0,2.457369268E-1,7.100072503E-2,-7.377450913E-2
2.190423250E0,2.364768386E-1,-2.751261462E-3,-1.058679968E-1
2.200362250E0,2.078328431E-1,-6.619846821E-2,-1.300117671E-1
2.210302250E0,1.640182436E-1,-1.125571728E-1,-1.527602226E-1
2.220241250E0,1.148308218E-1,-1.328823566E-1,-1.762344390E-1
2.230181250E0,7.038000226E-2,-1.281025112E-1,-2.052612901E-1
2.240120250E0,3.719111905E-2,-1.125743538E-1,-2.376622260E-1
2.250060250E0,2.380767092E-2,-7.848562300E-2,-2.651460767E-1
2.259999250E0,2.645395696E-2,-4.033298045E-2,-2.806603611E-1
2.269939250E0,4.857790098E-2,-1.033273805E-2,-2.961458564E-1
2.279879250E0,7.554204017E-2,1.776052173E-3,-2.975203991E-1
2.289818250E0,9.054176509E-2,7.794969715E-4,-2.929107249E-1
2.299758250E0,9.132143110E-2,-1.277525816E-2,-2.856681943E-1
2.309697250E0,8.020965755E-2,-3.735570237E-2,-2.810473442E-1
2.319637250E0,5.923381075E-2,-7.041937858E-2,-2.682082653E-1
2.329576250E0,3.550530970E-2,-1.067851111E-1,-2.448520809E-1
2.339516250E0,2.169567905E-2,-1.416393518E-1,-2.106567919E-1
2.349455250E0,8.704779670E-3,-1.626165360E-1,-1.710204333E-1
2.359395250E0,6.443396676E-3,-1.791127622E-1,-1.346658319E-1
2.369334250E0,4.697427619E-3,-1.986353397E-1,-1.093905792E-1
2.379274250E0,-1.697316766E-4,-2.193132490E-1,-1.067479402E-1
2.389213250E0,-7.265724242E-3,-2.442015558E-1,-1.170146912E-1
2.399153250E0,-1.688396744E-2,-2.642552257E-1,-1.332025975E-1
2.409092250E0,-2.743860707E-2,-2.884604335E-1,-1.486201733E-1
2.419032250E0,-3.886712343E-2,-3.069787920E-1,-1.606659889E-1
2.428971250E0,-6.425317377E-2,-3.372810483E-1,-1.568289101E-1
2.438911250E0,-1.071461588E-1,-3.745594919E-1,-1.501922607E-1
2.448850250E0,-1.573613882E-1,-3.882390857E-1,-1.453983039E-1
2.458790250E0,-2.273322046E-1,-3.940117657E-1,-1.414248794E-1
2.468729250E0,-2.989403307E-1,-3.824459314E-1,-1.377292126E-1
2.478669250E0,-3.496628106E-1,-3.761991560E-1,-1.045546532E-1
2.488609250E0,-3.941546381E-1,-4.077381492E-1,-3.469115123E-2
2.498548250E0,-4.426018298E-1,-4.577221870E-1,5.148582533E-2
2.508488250E0,-4.779217541E-1,-5.214518309E-1,1.425909698E-1
2.518427250E0,-4.744139314E-1,-5.719787478E-1,2.299389690E-1
2.528367250E0,-4.308187962E-1,-5.842934847E-1,3.269858956E-1
2.538306250E0,-3.876186907E-1,-5.714266896E-1,4.179729819E-1
2.548246250E0,-3.517490923E-1,-5.273122787E-1,4.731928408E-1
2.558185250E0,-3.310100734E-1,-4.510378242E-1,4.843724072E-1
2.568125250E0,-3.087183535E-1,-3.609428108E-1,4.709580839E-1
2.578064250E0,-2.844015956E-1,-2.743649781E-1,4.469968379E-1
2.588004250E0,-2.660588026E-1,-1.902213544E-1,4.212568700E-1
2.597943250E0,-2.478929162E-1,-1.177433431E-1,4.119435251E-1
2.607883250E0,-2.274595350E-1,-6.416586787E-2,4.031676054E-1
2.617822250E0,-1.959926635E-1,-4.377945140E-2,3.901732564E-1
2.627762250E0,-1.655633748E-1,-4.975398630E-2,3.618161678E-1
2.637701250E0,-1.324110180E-1,-8.013984561E-2,3.195930719E-1
2.647641250E0,-9.653531760E-2,-1.284533143E-1,2.545781136E-1
2.657580250E0,-6.832055748E-2,-1.942377388E-1,1.829724312E-1
2.667520250E0,-5.018842220E-2,-2.749184370E-1,1.076627672E-1
2.677459250E0,-2.799756639E-2,-3.428515792E-1,3.435136378E-2
2.687399250E0,-2.660518279E-3,-3.996331096E-1,-2.908939496E-2
2.697339250E0,3.509357944E-2,-4.451056123E-1,-8.111068606E-2
2.707278250E0,7.538880408E-2,-4.880301952E-1,-1.238389760E-1
2.717218250E0,1.238854975E-1,-5.328328013E-1,-1.511299759E-1
2.727157250E0,1.744397581E-1,-5.862709880E-1,-1.751205325E-1
2.737097250E0,2.141502649E-1,-6.429326534E-1,-1.894284189E-1
2.747036250E0,2.400375158E-1,-6.986121535E-1,-2.051309496E-1
2.756976250E0,2.542536855E-1,-7.447805405E-1,-2.027026415E-1
2.766915250E0,2.575078011E-1,-7.860667109E-1,-1.866935790E-1
2.776855250E0,2.638482749E-1,-8.153924346E-1,-1.597902328E-1
2.786794250E0,2.766292989E-1,-8.219422102E-1,-1.257592887E-1
2.796734250E0,2.962963283E-1,-8.066958785E-1,-8.883593976E-2
2.806673250E0,3.152327240E-1,-7.562369704E-1,-5.494960397E-2
2.816613250E0,3.361288905E-1,-6.820867062E-1,-3.305239230E-2
2.826552250E0,3.579702675E-1,-5.841599107E-1,-1.506380737E-2
2.836492250E0,3.854169548E-1,-4.604757428E-1,-5.820438266E-3
2.846431250E0,4.129788280E-1,-3.189513683E-1,-7.154415362E-3
2.856371250E0,4.330331683E-1,-1.748767346E-1,-1.432045829E-2
2.866310250E0,4.430184364E-1,-4.784421623E-2,-2.255761623E-2
2.876250250E0,4.494754970E-1,5.144407973E-2,-3.048515692E-2
2.886189250E0,4.495969415E-1,1.178808883E-1,-2.696659043E-2
2.896129250E0,4.370574355E-1,1.591591537E-1,-6.100041792E-3
2.906068250E0,4.155143201E-1,1.905820668E-1,2.657694370E-2
2.916008250E0,3.725285530E-1,2.107484490E-1,6.976339966E-2
2.925948250E0,3.322652876E-1,2.212176025E-1,1.144845337E-1
2.935887250E0,3.152604103E-1,2.296764702E-1,1.592923850E-1
2.945827250E0,3.236435056E-1,2.466631681E-1,2.029852569E-1
2.955766250E0,3.601869047E-1,2.441155463E-1,2.360301465E-1
2.965706250E0,4.008224905E-1,1.887297779E-1,2.673121691E-1
2.975645250E0,4.199907482E-1,4.189664125E-2,3.140332699E-1
2.985585250E0,4.097591341E-1,-1.707099080E-1,3.745267093E-1
2.995524250E0,3.715761304E-1,-3.988829851E-1,4.355571568E-1
3.005464250E0,3.335906565E-1,-5.933846235E-1,5.001776814E-1
3.015403250E0,2.999213338E-1,-7.146430016E-1,5.683357120E-1
3.025343250E0,2.762767375E-1,-7.643815279E-1,6.431782842E-1
3.035282250E0,2.346623391E-1,-7.290278673E-1,6.938932538E-1
3.045222250E0,2.013075799E-1,-6.153029203E-1,7.117934227E-1
3.055161250E0,2.053617388E-1,-4.263069630E-1,7.159879208E-1
3.065101250E0,2.300175577E-1,-1.617847681E-1,7.224484682E-1
3.075040250E0,2.528003156E-1,1.764668524E-1,7.122600675E-1
3.084980250E0,2.383452356E-1,5.077771544E-1,6.666771173E-1
3.094919250E0,1.577292532E-1,7.598606944E-1,5.565660000E-1
3.104859250E0,2.085741796E-2,8.834899664E-1,4.061861336E-1
3.114798250E0,-1.178535149E-1,9.133680463E-1,2.638947368E-1
3.124738250E0,-2.398009896E-1,8.684312105E-1,1.452035010E-1
3.134677250E0,-3.246314228E-1,7.870891690E-1,8.469326049E-2
3.144617250E0,-3.772877157E-1,6.969640851E-1,8.512443304E-2
3.154556250E0,-4.115337133E-1,6.310783029E-1,1.045631692E-1
3.164496250E0,-4.352526367E-1,5.917831063E-1,1.138533428E-1
3.174435250E0,-4.308362603E-1,5.643271804E-1,9.594716877E-2
3.184375250E0,-4.021066129E-1,5.440940857E-1,4.325279221E-2
3.194315250E0,-3.571097851E-1,5.125246048E-1,-3.763929009E-2
3.204254250E0,-3.074186444E-1,4.754331112E-1,-1.337927282E-1
3.214194250E0,-2.593109012E-1,4.344366193E-1,-2.308648974E-1
3.224133250E0,-2.088138908E-1,3.820471764E-1,-3.055694997E-1
3.234073250E0,-1.494165063E-1,3.073596954E-1,-3.649046421E-1
3.244012250E0,-9.867957234E-2,2.194237113E-1,-4.003502429E-1
3.253952250E0,-6.459866464E-2,1.252153814E-1,-4.182895124E-1
3.263891250E0,-5.159365013E-2,3.972977400E-2,-4.197345376E-1
3.273831250E0,-5.762623996E-2,-3.243550286E-2,-4.165199995E-1
3.283770250E0,-7.119957358E-2,-7.950714231E-2,-4.105502367E-1
3.293710250E0,-9.400231391E-2,-8.990819007E-2,-3.980126083E-1
3.303649250E0,-1.186637208E-1,-6.925031543E-2,-3.889509439E-1
3.313589250E0,-1.372368783E-1,-3.195725754E-2,-3.787270784E-1
